distance(meter)	elevation(mil)	wind(mil)(4m/s)
12.7x99mm
100	-12	0.4
200	-8.5	0.5
300	-6.25	0.8
400	-3	1.2
500	0	1.5
600	2.75	2.3
700	6.75	2.3
800	10.5	3
900	14.25	3.6
1000	19	4.3
1100	24	5
1200	29.25	5.7
1300	34.5	6.4
1400	41.25	7.4
1500	48	8.4
1600	55.5	9.3
1700	63.25	10.5
1800	72	11.6
1900	81.5	13
2000	92	14.4