distance(meter)	elevation(mil)	wind(mil)(4m/s)
25x59mm
100	-16	1
200	-12	1.2
300	-8	1.4
400	-4	1.2
500	0	1.4
600	5	2.1
700	11	2.4
800	18	3.4
900	26	3.6
1000	34	4.4
1100	43	5.2
1200	54	6.2
1300	66	7.4
1400	80	8.4
1500	97	9.9
1600	114	11.5
1700	135	13.1
1800	159	15.3
1900	186	17.6
2000	218	20.5