distance(meter)	elevation(mil)	wind(mil)(4m/s)
7.62x54mm
100	0.6	0.3
200	1.4	0.4
300	2.4	0.6
350	2.9	0.75
400	3.3	0.9
450	3.9	1.05
500	4.6	1.2
550	5.4	1.4
600	6.1	1.6
650	6.9	1.85
700	7.7	2.1
750	8.6	2.35
800	9.7	2.6
850	10.9	2.9
900	12	3.2
950	13.5	3.7
1000	14.8	4.2